Wavelength	Transmittance	hex_color	Manufacturer	Name	Filter Number
1080	0.00014000000000000001	#838383	Omega	1120BP20 Bandpass	W4478
1081	0.00016				
1082	0.0002				
1083	0.00023				
1084	0.00027				
1085	0.00033				
1086	0.00039				
1087	0.00048				
1088	0.0005899999999999999				
1089	0.00074				
1090	0.00092				
1091	0.00117				
1092	0.00149				
1093	0.00193				
1094	0.00255				
1095	0.00345				
1096	0.004719999999999999				
1097	0.00656				
1098	0.00932				
1099	0.01381				
1100	0.02073				
