Wavelength	Transmittance	hex_color	Manufacturer	Name	Filter Number
550	0.0005099999999999999	#838383	Omega	599AF22 Bandpass	W4623
551	0.00055				
552	0.0001				
553	0.00018999999999999998				
554	0.00046				
555	0.0004				
556	0.00013				
557	0.0				
558	0.00016				
559	0.0				
560	0.00042				
561	5e-05				
562	6e-05				
563	0.00041				
564	0.00024				
565	0.00021999999999999998				
566	8.999999999999999e-05				
567	0.00043				
568	0.00016				
569	0.00035000000000000005				
570	0.0005				
571	8.999999999999999e-05				
572	0.00062				
573	0.0005099999999999999				
574	0.00021				
575	0.00033				
576	0.00037				
577	0.00049				
578	0.00067				
579	0.00098				
580	0.00099				
581	0.00153				
582	0.00249				
583	0.00486				
584	0.01038				
585	0.02213				
586	0.055670000000000004				
587	0.1445				
588	0.34165999999999996				
589	0.54842				
590	0.73488				
591	0.7852899999999999				
592	0.80109				
593	0.8140999999999999				
594	0.83173				
595	0.8408100000000001				
596	0.84193				
597	0.83366				
598	0.8237399999999999				
599	0.8123999999999999				
600	0.80242				
601	0.7959				
602	0.79257				
603	0.7917000000000001				
604	0.79438				
605	0.79842				
606	0.8007299999999999				
607	0.7981699999999999				
608	0.79168				
609	0.78991				
610	0.7986				
611	0.77398				
612	0.58168				
613	0.27581				
614	0.08279				
615	0.027549999999999998				
616	0.00832				
617	0.004				
618	0.00209				
619	0.00083				
620	0.00124				
621	0.00105				
622	0.0007199999999999999				
623	0.00105				
624	0.00101				
625	0.00053				
626	0.00039				
627	0.00023				
628	6e-05				
629	0.00092				
630	0.00047				
631	0.0005099999999999999				
632	0.00033				
633	0.00058				
634	0.00039				
635	0.0006				
636	0.00039				
637	4e-05				
638	0.00024				
639	0.00058				
640	0.00027				
